wavelength flux
4750.1875 80373.3
4751.4375 73411.59
4752.6875 73367.39
4753.9375 73327.06
4755.1875 72772.73
4756.4375 74234.74
4757.6875 74197.88
4758.9375 71921.43
4760.1875 75137.39
4761.4375 74031.3
4762.6875 72610.85
4763.9375 74247.71
4765.1875 72211.3
4766.4375 73586.93
4767.6875 74139.24
4768.9375 72097.1
4770.1875 72757.83
4771.4375 74729.13
4772.6875 73543.11
4773.9375 71523.11
4775.1875 71727.14
4776.4375 69582.92
4777.6875 70580.2
4778.9375 71444.65
4780.1875 72304.43
4781.4375 72168.75
4782.6875 71537.52
4783.9375 70043.03
4785.1875 68144.15
4786.4375 67424.37
4787.6875 68143.25
4788.9375 68443.99
4790.1875 71813.61
4791.4375 69121.76
4792.6875 69397.59
4793.9375 71326.88
4795.1875 71027.76
4796.4375 70881.41
4797.6875 69628.13
4798.9375 70343.42
4800.1875 70421.8
4801.4375 67605.78
4802.6875 69078.12
4803.9375 70653.36
4805.1875 68153.98
4806.4375 68638.65
4807.6875 68658.02
4808.9375 69005.5
4810.1875 68633.61
4811.4375 68246.62
4812.6875 69406.51
4813.9375 71202.39
4815.1875 70433.33
4816.4375 69678.9
4817.6875 69884.84
4818.9375 68369.53
4820.1875 69839.56
4821.4375 68215.02
4822.6875 67917.95
4823.9375 67119.39
4825.1875 68792.76
4826.4375 68608.78
4827.6875 67074.6
4828.9375 66306.23
4830.1875 67585.6
4831.4375 68383.25
4832.6875 67843.41
4833.9375 68104.4
4835.1875 68184.73
4836.4375 69948.07
4837.6875 67521.72
4838.9375 67227.22
4840.1875 68707.05
4841.4375 66990.32
4842.6875 65842.55
4843.9375 68299.7
4845.1875 65381.71
4846.4375 65591.94
4847.6875 67739.2
4848.9375 67074.81
4850.1875 68273.36
4851.4375 65150.32
4852.6875 67310.06
4853.9375 67316.69
4855.1875 67288.46
4856.4375 67751.74
4857.6875 66615.86
4858.9375 66770.86
4860.1875 64822.87
4861.4375 65830.07
4862.6875 64039.55
4863.9375 64002.45
4865.1875 64863.5
4866.4375 66252.13
4867.6875 65200.12
4868.9375 64936.0
4870.1875 64252.56
4871.4375 64627.28
4872.6875 63723.15
4873.9375 65403.22
4875.1875 62905.64
4876.4375 63021.98
4877.6875 61971.23
4878.9375 62731.0
4880.1875 86407.97
4881.4375 286195.74
4882.6875 608032.41
4883.9375 547297.88
4885.1875 213912.75
4886.4375 76842.56
4887.6875 61967.21
4888.9375 63403.04
4890.1875 62502.52
4891.4375 60813.37
4892.6875 61454.07
4893.9375 61057.65
4895.1875 60242.32
4896.4375 62391.54
4897.6875 64143.64
4898.9375 63373.7
4900.1875 64369.01
4901.4375 62303.67
4902.6875 64413.48
4903.9375 62950.99
4905.1875 62272.15
4906.4375 60819.76
4907.6875 62333.93
4908.9375 61993.43
4910.1875 64105.39
4911.4375 62808.39
4912.6875 60893.95
4913.9375 59755.62
4915.1875 63317.16
4916.4375 65775.41
4917.6875 65119.12
4918.9375 64632.92
4920.1875 64553.2
4921.4375 64925.91
4922.6875 63880.95
4923.9375 63678.84
4925.1875 63435.63
4926.4375 63635.65
4927.6875 62619.66
4928.9375 65638.16
4930.1875 63883.42
4931.4375 62531.49
4932.6875 59857.22
4933.9375 63459.24
4935.1875 64687.23
4936.4375 63661.5
4937.6875 63761.92
4938.9375 63747.45
4940.1875 62017.46
4941.4375 59129.01
4942.6875 59774.41
4943.9375 60438.45
4945.1875 61112.29
4946.4375 61850.6
4947.6875 61775.62
4948.9375 62957.4
4950.1875 64180.83
4951.4375 64526.15
4952.6875 65034.19
4953.9375 64458.69
4955.1875 62387.42
4956.4375 62319.28
4957.6875 62643.2
4958.9375 63749.49
4960.1875 62696.16
4961.4375 61616.54
4962.6875 61732.05
4963.9375 62629.46
4965.1875 64019.66
4966.4375 63577.13
4967.6875 64300.55
4968.9375 61809.99
4970.1875 63307.79
4971.4375 63483.71
4972.6875 64807.27
4973.9375 64994.68
4975.1875 64259.17
4976.4375 63017.49
4977.6875 63189.84
4978.9375 65088.5
4980.1875 74586.66
4981.4375 81801.86
4982.6875 72953.57
4983.9375 64768.1
4985.1875 61828.92
4986.4375 62481.66
4987.6875 61382.6
4988.9375 62335.96
4990.1875 59447.95
4991.4375 59564.44
4992.6875 61108.38
4993.9375 61217.28
4995.1875 61639.53
4996.4375 61711.21
4997.6875 62254.43
4998.9375 61301.93
5000.1875 60563.97
5001.4375 60226.9
5002.6875 59915.25
5003.9375 57957.05
5005.1875 57427.24
5006.4375 58705.66
5007.6875 61387.43
5008.9375 61830.43
5010.1875 60873.93
5011.4375 60516.18
5012.6875 60546.15
5013.9375 60747.24
5015.1875 59047.3
5016.4375 58465.02
5017.6875 61095.02
5018.9375 60511.8
5020.1875 60193.0
5021.4375 59951.42
5022.6875 56798.64
5023.9375 57917.0
5025.1875 58071.68
5026.4375 63089.41
5027.6875 84559.67
5028.9375 113373.89
5030.1875 103870.97
5031.4375 73771.76
5032.6875 61095.47
5033.9375 58561.84
5035.1875 55855.35
5036.4375 57671.57
5037.6875 61266.29
5038.9375 61454.76
5040.1875 56395.83
5041.4375 57455.32
5042.6875 56999.81
5043.9375 57689.41
5045.1875 56523.17
5046.4375 58895.78
5047.6875 56300.0
5048.9375 57799.39
5050.1875 57724.58
5051.4375 57098.42
5052.6875 58209.54
5053.9375 58944.44
5055.1875 57905.77
5056.4375 59901.37
5057.6875 56688.93
5058.9375 56618.9
5060.1875 56651.46
5061.4375 56370.55
5062.6875 56461.39
5063.9375 55459.81
5065.1875 56718.46
5066.4375 56116.22
5067.6875 58209.54
5068.9375 58905.15
5070.1875 57131.36
5071.4375 56685.9
5072.6875 55751.12
5073.9375 55737.15
5075.1875 56656.25
5076.4375 58583.97
5077.6875 59162.51
5078.9375 58874.05
5080.1875 59003.99
5081.4375 57377.91
5082.6875 57703.98
5083.9375 58008.74
5085.1875 57648.05
5086.4375 57597.47
5087.6875 56483.65
5088.9375 56666.97
5090.1875 56997.79
5091.4375 55869.43
5092.6875 55737.82
5093.9375 57190.83
5095.1875 56133.58
5096.4375 55746.86
5097.6875 56237.61
5098.9375 55277.55
5100.1875 56444.91
5101.4375 55429.14
5102.6875 55502.27
5103.9375 55275.82
5105.1875 54816.85
5106.4375 54391.61
5107.6875 55642.64
5108.9375 55282.2
5110.1875 56865.99
5111.4375 55824.9
5112.6875 56216.94
5113.9375 56299.92
5115.1875 56424.34
5116.4375 57218.96
5117.6875 57079.62
5118.9375 56007.85
5120.1875 56360.39
5121.4375 54573.66
5122.6875 55564.79
5123.9375 54389.38
5125.1875 56215.65
5126.4375 56463.15
5127.6875 55341.23
5128.9375 54735.68
5130.1875 55030.06
5131.4375 53191.57
5132.6875 53687.94
5133.9375 54135.38
5135.1875 55093.83
5136.4375 55043.25
5137.6875 54705.49
5138.9375 53916.97
5140.1875 55317.21
5141.4375 56501.93
5142.6875 55572.65
5143.9375 55297.3
5145.1875 53212.48
5146.4375 54009.61
5147.6875 54087.69
5148.9375 54096.84
5150.1875 53762.61
5151.4375 53364.52
5152.6875 54314.74
5153.9375 52885.26
5155.1875 53536.83
5156.4375 54088.9
5157.6875 54451.45
5158.9375 54836.39
5160.1875 54391.8
5161.4375 53622.04
5162.6875 53932.42
5163.9375 52728.91
5165.1875 52251.4
5166.4375 53708.88
5167.6875 53859.39
5168.9375 53809.56
5170.1875 52544.99
5171.4375 52418.05
5172.6875 53611.94
5173.9375 53549.59
5175.1875 52550.33
5176.4375 51931.65
5177.6875 52237.97
5178.9375 52731.95
5180.1875 53747.76
5181.4375 53995.41
5182.6875 53025.66
5183.9375 53592.28
5185.1875 52825.11
5186.4375 54302.02
5187.6875 52137.68
5188.9375 49780.1
5190.1875 47361.05
5191.4375 47760.62
5192.6875 49586.02
5193.9375 49930.65
5195.1875 48292.96
5196.4375 49272.4
5197.6875 52544.99
5198.9375 54388.98
5200.1875 54171.52
5201.4375 53228.73
5202.6875 52835.77
5203.9375 51554.13
5205.1875 49236.48
5206.4375 47266.01
5207.6875 47152.3
5208.9375 48598.48
5210.1875 50178.17
5211.4375 52382.86
5212.6875 52219.97
5213.9375 51652.27
5215.1875 50265.06
5216.4375 50485.8
5217.6875 51077.68
5218.9375 51977.02
5220.1875 56831.82
5221.4375 62579.67
5222.6875 61214.87
5223.9375 59736.11
5225.1875 55439.5
5226.4375 51815.15
5227.6875 51269.2
5228.9375 49401.83
5230.1875 49433.96
5231.4375 50024.88
5232.6875 49289.84
5233.9375 50559.09
5235.1875 51632.64
5236.4375 52783.4
5237.6875 51121.92
5238.9375 51223.46
5240.1875 51011.27
5241.4375 51203.82
5242.6875 52050.29
5243.9375 52277.14
5245.1875 52701.84
5246.4375 51463.96
5247.6875 50399.81
5248.9375 48987.55
5250.1875 49510.95
5251.4375 48129.55
5252.6875 50507.45
5253.9375 51823.85
5255.1875 51618.81
5256.4375 51096.92
5257.6875 49465.51
5258.9375 50434.67
5260.1875 51290.56
5261.4375 51291.2
5262.6875 51746.1
5263.9375 51369.53
5265.1875 51627.13
5266.4375 51847.64
5267.6875 51493.99
5268.9375 51203.32
5270.1875 51137.91
5271.4375 50553.36
5272.6875 50402.66
5273.9375 49303.59
5275.1875 49863.67
5276.4375 50138.5
5277.6875 50382.63
5278.9375 51481.91
5280.1875 50562.82
5281.4375 51877.56
5282.6875 51666.17
5283.9375 51090.77
5285.1875 49098.32
5286.4375 49624.79
5287.6875 47800.54
5288.9375 47895.97
5290.1875 47597.12
5291.4375 48822.87
5292.6875 48136.3
5293.9375 48087.87
5295.1875 48777.44
5296.4375 48314.94
5297.6875 49788.13
5298.9375 48662.95
5300.1875 50089.24
5301.4375 49765.79
5302.6875 50682.76
5303.9375 49844.25
5305.1875 50760.42
5306.4375 48855.27
5307.6875 49442.04
5308.9375 49439.13
5310.1875 50563.0
5311.4375 52178.36
5312.6875 51528.93
5313.9375 51892.03
5315.1875 51731.16
5316.4375 50984.35
5317.6875 50069.39
5318.9375 49956.51
5320.1875 50129.82
5321.4375 48800.6
5322.6875 49019.34
5323.9375 49275.16
5325.1875 47843.18
5326.4375 49931.62
5327.6875 51411.43
5328.9375 49474.3
5330.1875 50282.68
5331.4375 50501.68
5332.6875 51690.04
5333.9375 51486.0
5335.1875 51293.17
5336.4375 50527.84
5337.6875 49855.01
5338.9375 50181.27
5340.1875 49538.82
5341.4375 49392.09
5342.6875 50593.6
5343.9375 50496.7
5345.1875 50424.2
5346.4375 49578.64
5347.6875 49324.16
5348.9375 48654.15
5350.1875 47764.01
5351.4375 46540.17
5352.6875 46487.44
5353.9375 47497.01
5355.1875 47931.16
5356.4375 50010.09
5357.6875 49052.29
5358.9375 49163.58
5360.1875 49497.7
5361.4375 48441.4
5362.6875 48699.78
5363.9375 48824.11
5365.1875 48123.38
5366.4375 48519.51
5367.6875 48993.51
5368.9375 48863.32
5370.1875 49161.43
5371.4375 49053.71
5372.6875 48954.93
5373.9375 49364.68
5375.1875 47890.1
5376.4375 49395.1
5377.6875 49509.99
5378.9375 50076.14
5380.1875 50474.94
5381.4375 50061.31
5382.6875 49317.33
5383.9375 49041.39
5385.1875 48783.54
5386.4375 47752.41
5387.6875 48669.68
5388.9375 48205.37
5390.1875 48580.99
5391.4375 47315.76
5392.6875 48441.36
5393.9375 45683.62
5395.1875 45195.07
5396.4375 46237.55
5397.6875 48453.92
5398.9375 48997.06
5400.1875 48966.5
5401.4375 48641.72
5402.6875 50172.3
5403.9375 48180.45
5405.1875 48122.33
5406.4375 48194.05
5407.6875 48420.97
5408.9375 48088.1
5410.1875 47555.21
5411.4375 49113.02
5412.6875 47726.38
5413.9375 47650.48
5415.1875 46699.91
5416.4375 46618.34
5417.6875 46649.21
5418.9375 47329.67
5420.1875 47036.63
5421.4375 44997.56
5422.6875 46576.38
5423.9375 46313.94
5425.1875 46076.92
5426.4375 46931.53
5427.6875 46971.61
5428.9375 45386.03
5430.1875 45043.49
5431.4375 45384.2
5432.6875 45306.18
5433.9375 46048.3
5435.1875 45342.39
5436.4375 47427.69
5437.6875 46977.67
5438.9375 47089.12
5440.1875 47160.03
5441.4375 47348.7
5442.6875 47343.37
5443.9375 46634.21
5445.1875 46856.23
5446.4375 47454.3
5447.6875 46070.89
5448.9375 46783.98
5450.1875 46800.97
5451.4375 48173.05
5452.6875 46873.49
5453.9375 46777.75
5455.1875 46053.11
5456.4375 45543.76
5457.6875 46017.53
5458.9375 46113.43
5460.1875 45068.38
5461.4375 46124.32
5462.6875 46839.02
5463.9375 48129.93
5465.1875 47646.06
5466.4375 47234.68
5467.6875 47299.39
5468.9375 46898.74
5470.1875 45819.34
5471.4375 44146.71
5472.6875 44934.1
5473.9375 45914.32
5475.1875 46492.82
5476.4375 46964.9
5477.6875 44606.52
5478.9375 45451.7
5480.1875 45217.09
5481.4375 44481.33
5482.6875 46871.84
5483.9375 46644.1
5485.1875 46295.87
5486.4375 45610.52
5487.6875 44863.46
5488.9375 45411.85
5490.1875 45946.79
5491.4375 46579.5
5492.6875 45911.7
5493.9375 46059.9
5495.1875 46478.48
5496.4375 46173.19
5497.6875 45066.98
5498.9375 44680.66
5500.1875 44089.71
5501.4375 44010.33
5502.6875 44937.95
5503.9375 44359.14
5505.1875 44939.38
5506.4375 43384.1
5507.6875 45060.83
5508.9375 45602.77
5510.1875 46185.88
5511.4375 45399.09
5512.6875 45572.93
5513.9375 44376.28
5515.1875 44659.76
5516.4375 45367.7
5517.6875 45752.67
5518.9375 45002.2
5520.1875 46034.18
5521.4375 44654.91
5522.6875 45095.35
5523.9375 44825.69
5525.1875 45186.64
5526.4375 45111.59
5527.6875 44477.15
5528.9375 44637.49
5530.1875 44269.82
5531.4375 43357.2
5532.6875 44674.24
5533.9375 44937.08
5535.1875 43882.85
5536.4375 44932.24
5537.6875 44660.21
5538.9375 44589.13
5540.1875 44297.19
5541.4375 45101.83
5542.6875 45968.79
5543.9375 46110.15
5545.1875 46127.13
5546.4375 45949.09
5547.6875 45602.47
5548.9375 45204.66
5550.1875 44648.08
5551.4375 43911.91
5552.6875 43515.21
5553.9375 43858.02
5555.1875 43859.61
5556.4375 44010.88
5557.6875 44173.35
5558.9375 43770.58
5560.1875 43589.44
5561.4375 44654.52
5562.6875 46245.53
5563.9375 45634.0
5565.1875 45532.94
5566.4375 44484.56
5567.6875 44526.69
5568.9375 43641.15
5570.1875 45337.08
5571.4375 45974.06
5572.6875 42223.0
5573.9375 38522.25
5575.1875 53732.25
5576.4375 350.81
5577.6875 10541.79
5578.9375 45372.6
5580.1875 43141.57
5581.4375 38843.54
5582.6875 43450.86
5583.9375 44593.58
5585.1875 45483.86
5586.4375 45353.13
5587.6875 43395.31
5588.9375 43969.4
5590.1875 43456.79
5591.4375 44176.75
5592.6875 43780.65
5593.9375 43112.04
5595.1875 43168.65
5596.4375 43495.09
5597.6875 43524.4
5598.9375 43837.7
5600.1875 43351.68
5601.4375 43594.22
5602.6875 44092.2
5603.9375 44660.34
5605.1875 44411.3
5606.4375 44376.09
5607.6875 43610.8
5608.9375 42882.27
5610.1875 42550.54
5611.4375 42066.93
5612.6875 41731.0
5613.9375 41774.39
5615.1875 41718.54
5616.4375 42034.16
5617.6875 42103.51
5618.9375 43032.91
5620.1875 43164.2
5621.4375 43104.06
5622.6875 42457.0
5623.9375 42471.88
5625.1875 41403.83
5626.4375 41867.55
5627.6875 42458.41
5628.9375 42312.08
5630.1875 42633.15
5631.4375 43443.86
5632.6875 43370.37
5633.9375 42970.21
5635.1875 43919.93
5636.4375 43921.34
5637.6875 44371.5
5638.9375 43499.12
5640.1875 41771.01
5641.4375 40535.99
5642.6875 41825.45
5643.9375 42930.31
5645.1875 42218.46
5646.4375 41817.43
5647.6875 42062.02
5648.9375 41785.95
5650.1875 42062.18
5651.4375 41839.07
5652.6875 42123.94
5653.9375 42797.4
5655.1875 42370.31
5656.4375 42440.36
5657.6875 42914.09
5658.9375 41890.97
5660.1875 41625.98
5661.4375 42685.87
5662.6875 42150.43
5663.9375 42355.67
5665.1875 41275.3
5666.4375 42178.78
5667.6875 41411.16
5668.9375 41787.44
5670.1875 42270.57
5671.4375 41327.74
5672.6875 42305.37
5673.9375 41611.21
5675.1875 41585.67
5676.4375 42979.62
5677.6875 42622.83
5678.9375 41973.96
5680.1875 42033.02
5681.4375 41188.49
5682.6875 41060.32
5683.9375 40786.41
5685.1875 41760.62
5686.4375 42126.85
5687.6875 41568.97
5688.9375 41890.46
5690.1875 42527.92
5691.4375 41345.36
5692.6875 41877.64
5693.9375 41542.42
5695.1875 42220.11
5696.4375 42527.27
5697.6875 42184.53
5698.9375 42533.7
5700.1875 42165.5
5701.4375 41875.89
5702.6875 42252.78
5703.9375 42411.85
5705.1875 42798.17
5706.4375 41785.76
5707.6875 41391.57
5708.9375 41548.05
5710.1875 42253.06
5711.4375 42428.01
5712.6875 41383.73
5713.9375 41615.5
5715.1875 41596.33
5716.4375 42643.17
5717.6875 43347.33
5718.9375 42891.42
5720.1875 42222.33
5721.4375 42672.58
5722.6875 42675.68
5723.9375 42072.78
5725.1875 42450.11
5726.4375 42351.12
5727.6875 41835.01
5728.9375 40642.07
5730.1875 41219.96
5731.4375 41087.57
5732.6875 40536.87
5733.9375 40053.17
5735.1875 39626.18
5736.4375 40002.95
5737.6875 39543.71
5738.9375 40010.01
5740.1875 41042.01
5741.4375 41807.73
5742.6875 41078.5
5743.9375 41972.69
5745.1875 41829.16
5746.4375 41357.66
5747.6875 41973.54
5748.9375 41023.34
5750.1875 41471.46
5751.4375 41680.1
5752.6875 41555.35
5753.9375 40936.67
5755.1875 41657.4
5756.4375 41989.34
5757.6875 41149.3
5758.9375 40902.55
5760.1875 40770.14
5761.4375 40824.34
5762.6875 40816.26
5763.9375 40533.45
5765.1875 40694.58
5766.4375 40545.3
5767.6875 40565.99
5768.9375 40324.16
5770.1875 40218.83
5771.4375 40526.19
5772.6875 40175.54
5773.9375 40509.08
5775.1875 40248.97
5776.4375 41071.74
5777.6875 41043.32
5778.9375 40052.92
5780.1875 41364.58
5781.4375 41560.42
5782.6875 40702.41
5783.9375 41299.93
5785.1875 40183.33
5786.4375 39863.55
5787.6875 39814.76
5788.9375 39875.76
5790.1875 39986.57
5791.4375 40166.69
5792.6875 41316.69
5793.9375 40067.09
5795.1875 40958.17
5796.4375 40628.87
5797.6875 40038.54
5798.9375 39542.59
5800.1875 38908.5
5801.4375 39906.99
5802.6875 39607.89
5803.9375 39520.35
5805.1875 38452.23
5806.4375 37565.85
5807.6875 37358.64
5808.9375 38112.14
5810.1875 38426.15
5811.4375 38553.74
5812.6875 39165.0
5813.9375 39529.67
5815.1875 39168.25
5816.4375 39717.08
5817.6875 39892.32
5818.9375 39235.64
5820.1875 39691.43
5821.4375 40137.02
5822.6875 39639.08
5823.9375 39878.43
5825.1875 39952.07
5826.4375 39431.1
5827.6875 40061.7
5828.9375 40042.94
5830.1875 40206.49
5831.4375 40575.32
5832.6875 40477.29
5833.9375 39759.47
5835.1875 39274.73
5836.4375 39457.83
5837.6875 39628.72
5838.9375 39610.27
5840.1875 39702.35
5841.4375 40227.76
5842.6875 40042.08
5843.9375 39751.96
5845.1875 39940.67
5846.4375 40409.67
5847.6875 40630.62
5848.9375 40128.85
5850.1875 40667.83
5851.4375 39234.26
5852.6875 39863.81
5853.9375 40522.32
5855.1875 39851.45
5856.4375 40238.12
5857.6875 39422.29
5858.9375 39832.28
5860.1875 39757.56
5861.4375 39236.59
5862.6875 40351.83
5863.9375 38685.78
5865.1875 39688.82
5866.4375 40237.7
5867.6875 40002.44
5868.9375 39966.23
5870.1875 39903.66
5871.4375 38527.25
5872.6875 38682.81
5873.9375 38600.52
5875.1875 38241.38
5876.4375 38252.98
5877.6875 37856.62
5878.9375 38242.78
5880.1875 38052.52
5881.4375 37865.18
5882.6875 37200.22
5883.9375 37691.69
5885.1875 37708.33
5886.4375 37628.86
5887.6875 38768.53
5888.9375 38074.71
5890.1875 38631.63
5891.4375 39592.38
5892.6875 36709.73
5893.9375 37427.28
5895.1875 38275.32
5896.4375 38978.59
5897.6875 38256.62
5898.9375 37794.94
5900.1875 46231.59
5901.4375 69801.06
5902.6875 72709.69
5903.9375 50670.41
5905.1875 39926.98
5906.4375 38962.0
5907.6875 38497.49
5908.9375 38673.7
5910.1875 38462.73
5911.4375 37964.44
5912.6875 37908.67
5913.9375 36873.28
5915.1875 33579.5
5916.4375 31138.71
5917.6875 33128.56
5918.9375 34540.31
5920.1875 34493.07
5921.4375 32890.34
5922.6875 32094.45
5923.9375 33645.67
5925.1875 36335.28
5926.4375 36914.4
5927.6875 37440.74
5928.9375 37165.59
5930.1875 37991.63
5931.4375 37419.95
5932.6875 37562.77
5933.9375 37200.17
5935.1875 37908.74
5936.4375 37911.22
5937.6875 37575.17
5938.9375 36835.46
5940.1875 36858.84
5941.4375 36202.59
5942.6875 36492.92
5943.9375 36628.93
5945.1875 36968.28
5946.4375 37425.84
5947.6875 36165.71
5948.9375 36609.86
5950.1875 37022.53
5951.4375 36897.92
5952.6875 37589.2
5953.9375 37323.17
5955.1875 36475.85
5956.4375 35993.76
5957.6875 36273.34
5958.9375 36481.7
5960.1875 36824.34
5961.4375 37126.04
5962.6875 36393.31
5963.9375 36758.54
5965.1875 36942.78
5966.4375 36250.48
5967.6875 36932.62
5968.9375 36443.18
5970.1875 36713.98
5971.4375 36226.31
5972.6875 36827.58
5973.9375 37429.73
5975.1875 37757.24
5976.4375 36895.96
5977.6875 36186.5
5978.9375 36484.07
5980.1875 36460.91
5981.4375 36277.8
5982.6875 36808.11
5983.9375 36763.83
5985.1875 36969.79
5986.4375 36704.75
5987.6875 37113.14
5988.9375 37254.58
5990.1875 36964.95
5991.4375 36118.86
5992.6875 35994.35
5993.9375 37086.91
5995.1875 37167.45
5996.4375 36697.37
5997.6875 36899.19
5998.9375 37125.02
6000.1875 36686.07
6001.4375 36552.97
6002.6875 36463.98
6003.9375 36037.91
6005.1875 36779.28
6006.4375 36757.75
6007.6875 36822.07
6008.9375 35802.3
6010.1875 35240.37
6011.4375 35594.31
6012.6875 35914.68
6013.9375 35580.56
6015.1875 36377.61
6016.4375 35881.27
6017.6875 36504.15
6018.9375 36503.6
6020.1875 36344.69
6021.4375 36027.51
6022.6875 35812.45
6023.9375 35670.86
6025.1875 35899.5
6026.4375 35268.97
6027.6875 35756.94
6028.9375 35712.22
6030.1875 35164.08
6031.4375 35129.04
6032.6875 35455.88
6033.9375 35263.2
6035.1875 35586.81
6036.4375 34846.88
6037.6875 34975.01
6038.9375 34880.6
6040.1875 35130.32
6041.4375 35450.26
6042.6875 35326.18
6043.9375 34470.58
6045.1875 35236.5
6046.4375 35754.0
6047.6875 35249.61
6048.9375 35218.72
6050.1875 35399.9
6051.4375 35934.14
6052.6875 35349.19
6053.9375 34989.34
6055.1875 35454.3
6056.4375 35729.88
6057.6875 36030.67
6058.9375 35829.53
6060.1875 36042.92
6061.4375 36017.82
6062.6875 36332.88
6063.9375 35403.67
6065.1875 36620.96
6066.4375 35771.22
6067.6875 36151.9
6068.9375 35584.51
6070.1875 35739.58
6071.4375 35200.0
6072.6875 36016.46
6073.9375 36052.7
6075.1875 35764.92
6076.4375 35951.81
6077.6875 35527.93
6078.9375 36140.17
6080.1875 35846.2
6081.4375 35903.28
6082.6875 35884.67
6083.9375 35264.98
6085.1875 35113.45
6086.4375 35398.29
6087.6875 35623.26
6088.9375 35465.82
6090.1875 35275.48
6091.4375 34446.33
6092.6875 34938.61
6093.9375 35277.35
6095.1875 35105.23
6096.4375 36092.79
6097.6875 35496.26
6098.9375 35386.14
6100.1875 35295.64
6101.4375 35008.97
6102.6875 35152.7
6103.9375 35128.99
6105.1875 35125.8
6106.4375 34856.26
6107.6875 34657.55
6108.9375 34823.09
6110.1875 35191.31
6111.4375 33808.3
6112.6875 34660.51
6113.9375 34710.12
6115.1875 34335.8
6116.4375 34475.66
6117.6875 33931.98
6118.9375 34210.54
6120.1875 34641.2
6121.4375 34923.26
6122.6875 34722.3
6123.9375 35107.65
6125.1875 34393.25
6126.4375 34494.97
6127.6875 33866.62
6128.9375 33504.81
6130.1875 33240.52
6131.4375 33835.96
6132.6875 34779.22
6133.9375 34428.16
6135.1875 34506.89
6136.4375 34099.02
6137.6875 34226.5
6138.9375 34635.6
6140.1875 34928.13
6141.4375 34861.18
6142.6875 34579.4
6143.9375 34652.04
6145.1875 34064.44
6146.4375 33855.61
6147.6875 33309.37
6148.9375 33120.52
6150.1875 33055.61
6151.4375 33701.91
6152.6875 33645.69
6153.9375 33790.22
6155.1875 33758.28
6156.4375 33734.14
6157.6875 33733.36
6158.9375 33695.07
6160.1875 33735.93
6161.4375 33809.42
6162.6875 33718.24
6163.9375 32426.79
6165.1875 31899.52
6166.4375 32836.22
6167.6875 33839.78
6168.9375 33320.46
6170.1875 33998.83
6171.4375 33547.16
6172.6875 33185.79
6173.9375 33189.31
6175.1875 33264.32
6176.4375 32720.27
6177.6875 33161.9
6178.9375 32857.6
6180.1875 33820.22
6181.4375 33285.34
6182.6875 32685.31
6183.9375 32815.86
6185.1875 32790.63
6186.4375 32652.96
6187.6875 31930.26
6188.9375 31165.96
6190.1875 30639.81
6191.4375 30586.75
6192.6875 31935.46
6193.9375 31232.38
6195.1875 31329.23
6196.4375 32102.07
6197.6875 30868.57
6198.9375 31853.24
6200.1875 31908.3
6201.4375 32587.06
6202.6875 32055.1
6203.9375 32744.82
6205.1875 32390.65
6206.4375 32388.48
6207.6875 32432.46
6208.9375 32638.97
6210.1875 32458.76
6211.4375 32842.08
6212.6875 32594.44
6213.9375 32294.48
6215.1875 32196.76
6216.4375 31951.95
6217.6875 31491.84
6218.9375 31537.79
6220.1875 31096.86
6221.4375 31625.59
6222.6875 31877.51
6223.9375 31883.89
6225.1875 31937.68
6226.4375 31718.25
6227.6875 31763.72
6228.9375 32361.04
6230.1875 31247.46
6231.4375 31733.18
6232.6875 32530.3
6233.9375 32553.51
6235.1875 32609.3
6236.4375 33074.21
6237.6875 31826.23
6238.9375 31532.97
6240.1875 31254.38
6241.4375 31428.76
6242.6875 30781.12
6243.9375 31167.25
6245.1875 30835.37
6246.4375 31666.73
6247.6875 31703.41
6248.9375 31375.8
6250.1875 31351.27
6251.4375 31010.11
6252.6875 31654.44
6253.9375 31692.99
6255.1875 31733.83
6256.4375 32343.51
6257.6875 31881.61
6258.9375 30755.83
6260.1875 29732.8
6261.4375 31157.93
6262.6875 31347.74
6263.9375 31493.86
6265.1875 32016.51
6266.4375 31687.01
6267.6875 30402.43
6268.9375 30466.63
6270.1875 30549.9
6271.4375 30321.33
6272.6875 30971.9
6273.9375 30479.97
6275.1875 31000.96
6276.4375 31267.4
6277.6875 31254.72
6278.9375 31513.96
6280.1875 30812.93
6281.4375 30692.08
6282.6875 30522.16
6283.9375 30178.88
6285.1875 30122.77
6286.4375 30829.1
6287.6875 31519.41
6288.9375 31494.08
6290.1875 30437.55
6291.4375 31340.17
6292.6875 30835.92
6293.9375 31891.79
6295.1875 31745.37
6296.4375 29692.49
6297.6875 33209.02
6298.9375 65088.53
6300.1875 108596.61
6301.4375 94347.65
6302.6875 44499.77
6303.9375 30792.19
6305.1875 30477.62
6306.4375 31431.82
6307.6875 31461.71
6308.9375 29489.78
6310.1875 29271.57
6311.4375 29016.14
6312.6875 29470.19
6313.9375 29422.25
6315.1875 30215.54
6316.4375 31303.25
6317.6875 30349.32
6318.9375 31370.08
6320.1875 30895.7
6321.4375 31768.4
6322.6875 30709.56
6323.9375 30783.23
6325.1875 31172.15
6326.4375 32601.66
6327.6875 39412.2
6328.9375 44195.73
6330.1875 37325.14
6331.4375 31367.99
6332.6875 30254.99
6333.9375 30865.84
6335.1875 30750.08
6336.4375 30694.67
6337.6875 31099.6
6338.9375 31122.96
6340.1875 31825.97
6341.4375 31609.36
6342.6875 30904.66
6343.9375 30834.13
6345.1875 30567.0
6346.4375 30070.8
6347.6875 31221.52
6348.9375 30296.21
6350.1875 29874.65
6351.4375 30382.55
6352.6875 30316.45
6353.9375 31041.28
6355.1875 30966.9
6356.4375 32202.57
6357.6875 31014.38
6358.9375 30901.3
6360.1875 30738.27
6361.4375 33414.97
6362.6875 45115.47
6363.9375 56999.03
6365.1875 47287.24
6366.4375 31977.28
6367.6875 30030.34
6368.9375 30522.24
6370.1875 30296.79
6371.4375 30408.26
6372.6875 30085.29
6373.9375 30411.95
6375.1875 30636.5
6376.4375 30320.18
6377.6875 30477.61
6378.9375 30811.79
6380.1875 30558.29
6381.4375 29852.3
6382.6875 30554.99
6383.9375 30529.29
6385.1875 30462.02
6386.4375 30503.78
6387.6875 30080.14
6388.9375 29776.08
6390.1875 30206.15
6391.4375 32774.68
6392.6875 34324.3
6393.9375 31726.73
6395.1875 30945.5
6396.4375 30442.07
6397.6875 30345.77
6398.9375 30866.42
6400.1875 30589.8
6401.4375 31012.69
6402.6875 30786.86
6403.9375 30369.25
6405.1875 30680.46
6406.4375 30407.72
6407.6875 30011.76
6408.9375 29914.65
6410.1875 30274.03
6411.4375 30274.93
6412.6875 30457.65
6413.9375 30386.21
6415.1875 30472.48
6416.4375 30140.88
6417.6875 30692.58
6418.9375 30862.45
6420.1875 30009.14
6421.4375 29848.93
6422.6875 29681.93
6423.9375 29813.15
6425.1875 30459.9
6426.4375 30096.63
6427.6875 29826.71
6428.9375 29140.94
6430.1875 29710.99
6431.4375 29692.28
6432.6875 30238.72
6433.9375 30455.72
6435.1875 30032.15
6436.4375 29843.86
6437.6875 29452.37
6438.9375 29344.96
6440.1875 29663.24
6441.4375 30137.21
6442.6875 30110.98
6443.9375 29763.55
6445.1875 29727.83
6446.4375 29754.58
6447.6875 30016.63
6448.9375 29340.3
6450.1875 28670.5
6451.4375 29813.24
6452.6875 29936.99
6453.9375 29687.81
6455.1875 30307.67
6456.4375 30257.04
6457.6875 30292.06
6458.9375 29689.05
6460.1875 28912.43
6461.4375 29302.46
6462.6875 30285.44
6463.9375 29673.73
6465.1875 30053.55
6466.4375 29361.97
6467.6875 29036.92
6468.9375 29221.63
6470.1875 29645.03
6471.4375 30088.94
6472.6875 29837.28
6473.9375 29351.18
6475.1875 29768.91
6476.4375 29500.3
6477.6875 29132.58
6478.9375 29115.47
6480.1875 28853.15
6481.4375 28405.58
6482.6875 29214.23
6483.9375 28295.19
6485.1875 28868.53
6486.4375 28852.79
6487.6875 29057.34
6488.9375 29744.0
6490.1875 29401.27
6491.4375 28655.68
6492.6875 28862.28
6493.9375 29434.22
6495.1875 29554.42
6496.4375 29850.51
6497.6875 30740.61
6498.9375 30682.69
6500.1875 29238.56
6501.4375 28696.05
6502.6875 29276.05
6503.9375 30009.31
6505.1875 29516.66
6506.4375 29685.45
6507.6875 29367.07
6508.9375 29001.52
6510.1875 28823.32
6511.4375 28564.05
6512.6875 28913.48
6513.9375 28984.56
6515.1875 28931.78
6516.4375 27998.65
6517.6875 28521.03
6518.9375 28553.78
6520.1875 28619.23
6521.4375 28627.1
6522.6875 28076.05
6523.9375 27201.32
6525.1875 27170.33
6526.4375 27457.95
6527.6875 28038.99
6528.9375 27702.29
6530.1875 28387.97
6531.4375 29106.99
6532.6875 29730.19
6533.9375 29173.08
6535.1875 28360.86
6536.4375 28653.22
6537.6875 29286.78
6538.9375 29387.54
6540.1875 29041.63
6541.4375 29265.11
6542.6875 29445.06
6543.9375 29768.12
6545.1875 28788.04
6546.4375 28104.42
6547.6875 28577.99
6548.9375 28507.04
6550.1875 28783.3
6551.4375 29255.15
6552.6875 30023.23
6553.9375 30198.33
6555.1875 28907.3
6556.4375 28475.62
6557.6875 28353.56
6558.9375 28802.3
6560.1875 28906.29
6561.4375 28396.22
6562.6875 28670.59
6563.9375 28840.07
6565.1875 28238.79
6566.4375 28951.88
6567.6875 29552.29
6568.9375 30082.48
6570.1875 29390.92
6571.4375 28948.68
6572.6875 29360.75
6573.9375 31226.52
6575.1875 48662.05
6576.4375 141401.3
6577.6875 212382.78
6578.9375 129424.53
6580.1875 44164.7
6581.4375 31497.75
6582.6875 29659.51
6583.9375 30505.79
6585.1875 31150.61
6586.4375 31493.29
6587.6875 34054.77
6588.9375 57296.13
6590.1875 326017.37
6591.4375 1301309.04
6592.6875 1709006.73
6593.9375 773518.05
6595.1875 130604.91
6596.4375 41497.13
6597.6875 33882.14
6598.9375 32028.84
6600.1875 31165.75
6601.4375 30592.43
6602.6875 30969.71
6603.9375 30763.03
6605.1875 30524.85
6606.4375 30433.91
6607.6875 30971.74
6608.9375 32919.62
6610.1875 50414.85
6611.4375 221399.1
6612.6875 550273.78
6613.9375 483502.24
6615.1875 146442.04
6616.4375 40540.93
6617.6875 31378.55
6618.9375 29849.23
6620.1875 28997.72
6621.4375 28475.67
6622.6875 28358.56
6623.9375 27912.42
6625.1875 28132.27
6626.4375 28835.87
6627.6875 28650.37
6628.9375 28285.52
6630.1875 28383.92
6631.4375 28137.93
6632.6875 28311.25
6633.9375 28084.72
6635.1875 28480.38
6636.4375 28192.47
6637.6875 28211.45
6638.9375 27538.83
6640.1875 28100.84
6641.4375 27779.56
6642.6875 28408.38
6643.9375 27933.01
6645.1875 28271.46
6646.4375 28675.66
6647.6875 28540.53
6648.9375 28354.95
6650.1875 28374.23
6651.4375 28525.09
6652.6875 28025.85
6653.9375 28082.09
6655.1875 27868.95
6656.4375 27332.99
6657.6875 27486.56
6658.9375 27973.39
6660.1875 27443.76
6661.4375 27922.04
6662.6875 27425.34
6663.9375 27701.72
6665.1875 27255.96
6666.4375 27521.71
6667.6875 27939.97
6668.9375 27899.16
6670.1875 27759.44
6671.4375 27515.85
6672.6875 27349.94
6673.9375 27298.47
6675.1875 27767.67
6676.4375 27430.01
6677.6875 27386.97
6678.9375 27658.56
6680.1875 27357.97
6681.4375 26955.08
6682.6875 27217.97
6683.9375 27657.91
6685.1875 27984.83
6686.4375 27892.42
6687.6875 28065.18
6688.9375 27183.88
6690.1875 27271.92
6691.4375 27349.98
6692.6875 26799.15
6693.9375 26763.98
6695.1875 26987.17
6696.4375 27331.61
6697.6875 27720.35
6698.9375 27752.74
6700.1875 27371.88
6701.4375 27039.47
6702.6875 27820.03
6703.9375 27659.56
6705.1875 28107.27
6706.4375 30474.07
6707.6875 35719.56
6708.9375 35158.07
6710.1875 29106.62
6711.4375 27066.74
6712.6875 27661.88
6713.9375 27112.99
6715.1875 26668.19
6716.4375 26823.92
6717.6875 27323.09
6718.9375 26924.06
6720.1875 26897.93
6721.4375 27513.09
6722.6875 27218.89
6723.9375 27089.69
6725.1875 27048.31
6726.4375 26824.47
6727.6875 26541.83
6728.9375 26279.65
6730.1875 26471.34
6731.4375 27023.36
6732.6875 26631.25
6733.9375 26920.94
6735.1875 26914.68
6736.4375 26766.23
6737.6875 26442.82
6738.9375 27023.29
6740.1875 27146.23
6741.4375 27105.34
6742.6875 27685.82
6743.9375 37593.72
6745.1875 114661.7
6746.4375 235309.46
6747.6875 190811.88
6748.9375 65025.78
6750.1875 29905.28
6751.4375 26457.65
6752.6875 26373.86
6753.9375 27153.36
6755.1875 27415.74
6756.4375 26944.85
6757.6875 28612.85
6758.9375 49383.69
6760.1875 133873.86
6761.4375 177796.2
6762.6875 98846.2
6763.9375 36443.3
6765.1875 27502.93
6766.4375 26471.5
6767.6875 26196.37
6768.9375 26134.59
6770.1875 25714.44
6771.4375 25688.31
6772.6875 26293.01
6773.9375 26368.16
6775.1875 25886.69
6776.4375 26246.63
6777.6875 26044.8
6778.9375 25730.71
6780.1875 25485.43
6781.4375 25538.56
6782.6875 25815.02
6783.9375 25481.65
6785.1875 25798.39
6786.4375 26275.79
6787.6875 26448.15
6788.9375 26169.54
6790.1875 26398.23
6791.4375 26148.91
6792.6875 26416.51
6793.9375 25967.14
6795.1875 26292.98
6796.4375 25838.65
6797.6875 25940.63
6798.9375 25889.14
6800.1875 25936.17
6801.4375 25511.37
6802.6875 25786.25
6803.9375 25885.49
6805.1875 26536.76
6806.4375 26305.73
6807.6875 26007.67
6808.9375 26286.55
6810.1875 26178.48
6811.4375 25806.26
6812.6875 26124.1
6813.9375 25490.3
6815.1875 25320.29
6816.4375 25417.59
6817.6875 25718.37
6818.9375 25425.9
6820.1875 25456.12
6821.4375 26061.53
6822.6875 26115.33
6823.9375 25849.66
6825.1875 25637.93
6826.4375 25985.91
6827.6875 26350.78
6828.9375 26481.68
6830.1875 25875.46
6831.4375 25777.37
6832.6875 25848.14
6833.9375 26255.99
6835.1875 26575.4
6836.4375 25209.42
6837.6875 25470.67
6838.9375 25593.01
6840.1875 25710.87
6841.4375 25679.02
6842.6875 25834.43
6843.9375 25233.33
6845.1875 25790.71
6846.4375 25627.38
6847.6875 25665.03
6848.9375 25842.54
6850.1875 25295.44
6851.4375 25664.25
6852.6875 25629.61
6853.9375 25672.38
6855.1875 25834.3
6856.4375 25426.93
6857.6875 25900.99
6858.9375 24860.9
6860.1875 25042.2
6861.4375 24833.5
6862.6875 26177.29
6863.9375 26783.18
6865.1875 26582.86
6866.4375 25405.87
6867.6875 24798.6
6868.9375 24669.66
6870.1875 26395.58
6871.4375 26002.68
6872.6875 25030.94
6873.9375 24934.98
6875.1875 25315.47
6876.4375 25402.13
6877.6875 25286.09
6878.9375 25485.15
6880.1875 25796.72
6881.4375 25857.45
6882.6875 25604.51
6883.9375 24773.54
6885.1875 24654.53
6886.4375 24319.46
6887.6875 24469.4
6888.9375 25926.99
6890.1875 25445.95
6891.4375 24822.45
6892.6875 24677.52
6893.9375 25355.06
6895.1875 25846.16
6896.4375 25064.33
6897.6875 24961.91
6898.9375 25598.87
6900.1875 25465.76
6901.4375 25485.25
6902.6875 25295.59
6903.9375 24673.58
6905.1875 24333.39
6906.4375 25272.16
6907.6875 25202.54
6908.9375 24802.07
6910.1875 24881.19
6911.4375 25339.73
6912.6875 25408.42
6913.9375 24566.45
6915.1875 24584.81
6916.4375 25173.41
6917.6875 25108.57
6918.9375 24608.28
6920.1875 24901.91
6921.4375 25208.3
6922.6875 26373.26
6923.9375 26470.07
6925.1875 25046.59
6926.4375 24882.15
6927.6875 24749.27
6928.9375 24798.5
6930.1875 24472.78
6931.4375 25149.48
6932.6875 25180.97
6933.9375 24802.04
6935.1875 24484.03
6936.4375 25080.9
6937.6875 24886.41
6938.9375 25735.89
6940.1875 25575.18
6941.4375 24771.96
6942.6875 24689.31
6943.9375 24584.18
6945.1875 24711.15
6946.4375 24413.86
6947.6875 24879.86
6948.9375 25165.2
6950.1875 25537.05
6951.4375 24092.68
6952.6875 24665.34
6953.9375 24588.95
6955.1875 24651.35
6956.4375 24328.16
6957.6875 24247.01
6958.9375 25017.76
6960.1875 24827.93
6961.4375 24830.93
6962.6875 24883.37
6963.9375 24715.03
6965.1875 24347.79
6966.4375 24221.88
6967.6875 24371.73
6968.9375 24599.87
6970.1875 24851.93
6971.4375 25072.44
6972.6875 24359.85
6973.9375 24491.39
6975.1875 24073.46
6976.4375 24209.04
6977.6875 24609.06
6978.9375 25349.02
6980.1875 24716.13
6981.4375 24261.03
6982.6875 24399.08
6983.9375 24287.86
6985.1875 24304.2
6986.4375 24173.63
6987.6875 23935.54
6988.9375 24495.23
6990.1875 23887.31
6991.4375 24193.33
6992.6875 24156.24
6993.9375 23913.66
6995.1875 23941.91
6996.4375 24596.81
6997.6875 24530.38
6998.9375 23968.86
7000.1875 24585.3
7001.4375 24703.37
7002.6875 24218.18
7003.9375 24443.1
7005.1875 23859.07
7006.4375 23963.78
7007.6875 23993.0
7008.9375 23521.29
7010.1875 23371.64
7011.4375 23535.73
7012.6875 24509.66
7013.9375 24315.49
7015.1875 24205.13
7016.4375 23857.46
7017.6875 24334.65
7018.9375 24320.58
7020.1875 24120.29
7021.4375 24331.65
7022.6875 24311.66
7023.9375 23898.92
7025.1875 23897.74
7026.4375 24167.16
7027.6875 23719.85
7028.9375 24022.95
7030.1875 24306.09
7031.4375 24112.25
7032.6875 24700.15
7033.9375 24630.04
7035.1875 24234.82
7036.4375 24196.76
7037.6875 23926.52
7038.9375 23463.39
7040.1875 23598.5
7041.4375 23932.32
7042.6875 24133.09
7043.9375 24074.75
7045.1875 24122.14
7046.4375 23616.94
7047.6875 23483.81
7048.9375 23687.48
7050.1875 23952.47
7051.4375 23952.55
7052.6875 23976.24
7053.9375 24066.59
7055.1875 23733.67
7056.4375 23773.57
7057.6875 23544.12
7058.9375 23755.0
7060.1875 24066.05
7061.4375 23941.49
7062.6875 24098.94
7063.9375 24083.08
7065.1875 23972.95
7066.4375 23836.68
7067.6875 24063.8
7068.9375 23829.51
7070.1875 24353.89
7071.4375 24334.7
7072.6875 24115.42
7073.9375 24373.76
7075.1875 24461.78
7076.4375 24337.63
7077.6875 24171.64
7078.9375 24203.11
7080.1875 24134.96
7081.4375 24137.86
7082.6875 24449.5
7083.9375 24309.78
7085.1875 23349.27
7086.4375 22965.47
7087.6875 23181.39
7088.9375 23539.09
7090.1875 23468.9
7091.4375 23053.26
7092.6875 22666.43
7093.9375 23185.08
7095.1875 24095.52
7096.4375 26727.19
7097.6875 27083.52
7098.9375 23714.22
7100.1875 22662.68
7101.4375 22691.06
7102.6875 23485.79
7103.9375 23557.51
7105.1875 23046.78
7106.4375 23212.27
7107.6875 23342.91
7108.9375 23407.19
7110.1875 23466.3
7111.4375 23308.24
7112.6875 23263.15
7113.9375 23538.32
7115.1875 22940.37
7116.4375 22710.28
7117.6875 22622.37
7118.9375 22628.8
7120.1875 22550.5
7121.4375 22251.2
7122.6875 22611.01
7123.9375 22381.46
7125.1875 22369.72
7126.4375 22274.23
7127.6875 22610.24
7128.9375 22452.2
7130.1875 22524.58
7131.4375 22834.22
7132.6875 22882.28
7133.9375 22925.1
7135.1875 22668.8
7136.4375 22677.51
7137.6875 22640.16
7138.9375 22479.16
7140.1875 22227.99
7141.4375 22800.21
7142.6875 22149.7
7143.9375 22514.28
7145.1875 22339.62
7146.4375 22144.13
7147.6875 22359.76
7148.9375 22490.93
7150.1875 22554.69
7151.4375 22105.02
7152.6875 21875.26
7153.9375 22128.96
7155.1875 22648.47
7156.4375 21756.27
7157.6875 22160.88
7158.9375 21895.24
7160.1875 21881.8
7161.4375 21989.1
7162.6875 21974.46
7163.9375 21440.53
7165.1875 22421.35
7166.4375 25214.74
7167.6875 29929.85
7168.9375 27349.81
7170.1875 23102.94
7171.4375 21939.88
7172.6875 21688.91
7173.9375 21610.9
7175.1875 22247.46
7176.4375 22004.61
7177.6875 21353.1
7178.9375 21159.68
7180.1875 21465.56
7181.4375 21195.57
7182.6875 21983.68
7183.9375 22044.69
7185.1875 22354.14
7186.4375 21937.74
7187.6875 22185.34
7188.9375 22021.15
7190.1875 22475.32
7191.4375 21831.7
7192.6875 21701.39
7193.9375 21578.59
7195.1875 21635.95
7196.4375 21554.17
7197.6875 21161.14
7198.9375 21395.97
7200.1875 21802.22
7201.4375 21539.34
7202.6875 22541.01
7203.9375 22307.91
7205.1875 21954.81
7206.4375 22094.62
7207.6875 21927.7
7208.9375 21832.45
7210.1875 21259.16
7211.4375 21711.14
7212.6875 21651.94
7213.9375 21614.33
7215.1875 21585.8
7216.4375 21553.66
7217.6875 21637.87
7218.9375 21506.06
7220.1875 20752.63
7221.4375 21072.48
7222.6875 21473.64
7223.9375 21383.04
7225.1875 21810.73
7226.4375 21875.47
7227.6875 21458.64
7228.9375 21693.14
7230.1875 21931.52
7231.4375 21547.42
7232.6875 21279.36
7233.9375 21231.23
7235.1875 21521.65
7236.4375 20711.19
7237.6875 20718.56
7238.9375 21096.06
7240.1875 21622.75
7241.4375 22817.14
7242.6875 21680.2
7243.9375 21414.74
7245.1875 22581.6
7246.4375 23381.22
7247.6875 22857.58
7248.9375 22016.36
7250.1875 21644.87
7251.4375 21294.87
7252.6875 21177.61
7253.9375 21525.06
7255.1875 21967.55
7256.4375 21187.46
7257.6875 21394.15
7258.9375 21883.82
7260.1875 22111.02
7261.4375 21649.49
7262.6875 22515.37
7263.9375 22518.96
7265.1875 22167.41
7266.4375 22121.61
7267.6875 22900.68
7268.9375 23469.9
7270.1875 22873.15
7271.4375 22124.62
7272.6875 21322.83
7273.9375 19832.43
7275.1875 20755.75
7276.4375 23344.88
7277.6875 26341.12
7278.9375 23150.33
7280.1875 21719.26
7281.4375 21540.78
7282.6875 20919.25
7283.9375 21360.52
7285.1875 23554.36
7286.4375 23523.82
7287.6875 21992.5
7288.9375 21750.36
7290.1875 22381.05
7291.4375 21959.61
7292.6875 21329.81
7293.9375 21048.64
7295.1875 20939.67
7296.4375 22431.97
7297.6875 22305.96
7298.9375 22176.27
7300.1875 21697.97
7301.4375 21386.32
7302.6875 20605.38
7303.9375 21613.28
7305.1875 22309.31
7306.4375 21840.49
7307.6875 22145.88
7308.9375 21745.52
7310.1875 21468.66
7311.4375 21665.37
7312.6875 21803.05
7313.9375 21164.63
7315.1875 20999.45
7316.4375 22380.64
7317.6875 24725.72
7318.9375 22250.32
7320.1875 21705.43
7321.4375 21503.85
7322.6875 21465.96
7323.9375 21690.34
7325.1875 21515.81
7326.4375 20926.49
7327.6875 19866.28
7328.9375 21802.86
7330.1875 23227.47
7331.4375 22337.61
7332.6875 21135.95
7333.9375 20908.66
7335.1875 21074.11
7336.4375 21502.54
7337.6875 20800.65
7338.9375 20163.69
7340.1875 20453.41
7341.4375 23792.79
7342.6875 25038.45
7343.9375 21863.87
7345.1875 21353.89
7346.4375 21441.6
7347.6875 21610.74
7348.9375 21172.64
7350.1875 21274.36
7351.4375 23206.29
7352.6875 23852.29
7353.9375 23538.73
7355.1875 21893.25
7356.4375 20601.61
7357.6875 20450.89
7358.9375 22501.22
7360.1875 22725.42
7361.4375 22084.47
7362.6875 23204.03
7363.9375 23196.83
7365.1875 22198.73
7366.4375 20274.22
7367.6875 19975.5
7368.9375 21883.89
7370.1875 24027.74
7371.4375 23918.68
7372.6875 21858.67
7373.9375 22326.28
7375.1875 21788.95
7376.4375 21667.98
7377.6875 21517.87
7378.9375 21287.34
7380.1875 21594.29
7381.4375 21605.76
7382.6875 21147.74
7383.9375 21387.84
7385.1875 21420.67
7386.4375 21364.19
7387.6875 21195.5
7388.9375 20532.84
7390.1875 19624.62
7391.4375 20519.63
7392.6875 21881.08
7393.9375 22672.32
7395.1875 21676.61
7396.4375 20978.26
7397.6875 20870.62
7398.9375 20682.78
7400.1875 20133.64
7401.4375 20966.43
7402.6875 23513.89
7403.9375 23049.45
7405.1875 21849.1
7406.4375 21746.24
7407.6875 21704.86
7408.9375 21661.48
7410.1875 22188.29
7411.4375 22483.06
7412.6875 22324.6
7413.9375 21878.53
7415.1875 21584.7
7416.4375 21438.58
7417.6875 21285.25
7418.9375 21018.87
7420.1875 20890.92
7421.4375 20914.0
7422.6875 20611.25
7423.9375 20941.24
7425.1875 20760.51
7426.4375 20983.0
7427.6875 20517.3
7428.9375 20868.08
7430.1875 21565.41
7431.4375 21703.67
7432.6875 21355.85
7433.9375 20885.44
7435.1875 20961.27
7436.4375 20437.61
7437.6875 21459.79
7438.9375 22567.18
7440.1875 22467.44
7441.4375 21555.89
7442.6875 20789.94
7443.9375 20896.38
7445.1875 21388.04
7446.4375 21068.96
7447.6875 21100.81
7448.9375 20623.54
7450.1875 20515.69
7451.4375 20567.4
7452.6875 20949.44
7453.9375 20789.67
7455.1875 20547.51
7456.4375 20673.28
7457.6875 20864.18
7458.9375 20987.12
7460.1875 21282.63
7461.4375 20657.93
7462.6875 21112.19
7463.9375 21138.73
7465.1875 20797.26
7466.4375 20915.49
7467.6875 21449.45
7468.9375 20683.53
7470.1875 20315.4
7471.4375 20766.7
7472.6875 20733.22
7473.9375 21569.36
7475.1875 21475.89
7476.4375 20992.14
7477.6875 20208.86
7478.9375 20148.84
7480.1875 21214.65
7481.4375 20765.25
7482.6875 20692.48
7483.9375 22075.61
7485.1875 22150.19
7486.4375 21555.48
7487.6875 21375.78
7488.9375 20931.7
7490.1875 21076.14
7491.4375 20985.16
7492.6875 20723.73
7493.9375 21096.81
7495.1875 20732.03
7496.4375 20539.75
7497.6875 20563.04
7498.9375 21165.77
7500.1875 21530.73
7501.4375 21659.32
7502.6875 21767.77
7503.9375 20999.4
7505.1875 20803.21
7506.4375 20650.29
7507.6875 20617.0
7508.9375 20718.74
7510.1875 21083.05
7511.4375 20609.04
7512.6875 20593.78
7513.9375 20418.61
7515.1875 20452.58
7516.4375 20371.09
7517.6875 20601.17
7518.9375 20974.9
7520.1875 20861.17
7521.4375 20323.05
7522.6875 20604.6
7523.9375 21932.58
7525.1875 23106.69
7526.4375 21763.83
7527.6875 19990.85
7528.9375 19606.44
7530.1875 20254.92
7531.4375 21794.81
7532.6875 21282.54
7533.9375 21008.13
7535.1875 20772.24
7536.4375 21022.0
7537.6875 21177.63
7538.9375 20731.8
7540.1875 20603.54
7541.4375 20992.95
7542.6875 20968.31
7543.9375 20765.14
7545.1875 20440.29
7546.4375 20773.21
7547.6875 20796.98
7548.9375 20932.43
7550.1875 20877.44
7551.4375 20553.03
7552.6875 21041.06
7553.9375 20943.68
7555.1875 20699.5
7556.4375 19816.53
7557.6875 20705.82
7558.9375 20984.61
7560.1875 20520.76
7561.4375 20442.18
7562.6875 20270.76
7563.9375 20503.55
7565.1875 19971.38
7566.4375 20207.18
7567.6875 20644.52
7568.9375 20493.92
7570.1875 20126.02
7571.4375 21292.05
7572.6875 22655.4
7573.9375 21597.45
7575.1875 20838.09
7576.4375 20894.74
7577.6875 20712.69
7578.9375 20592.3
7580.1875 20453.99
7581.4375 20465.52
7582.6875 20389.9
7583.9375 20047.34
7585.1875 20144.55
7586.4375 20877.77
7587.6875 21329.77
7588.9375 20605.91
7590.1875 20095.3
7591.4375 20413.21
7592.6875 20956.91
7593.9375 21306.54
7595.1875 19934.41
7596.4375 18197.72
7597.6875 20396.58
7598.9375 24389.49
7600.1875 22881.59
7601.4375 20333.09
7602.6875 20240.49
7603.9375 20252.07
7605.1875 21108.67
7606.4375 21020.21
7607.6875 19839.94
7608.9375 20301.28
7610.1875 20893.04
7611.4375 21127.95
7612.6875 20288.46
7613.9375 21120.86
7615.1875 19950.54
7616.4375 18916.49
7617.6875 20735.64
7618.9375 21092.86
7620.1875 19908.96
7621.4375 19409.72
7622.6875 20405.59
7623.9375 18409.03
7625.1875 18923.93
7626.4375 19530.95
7627.6875 17683.83
7628.9375 21551.46
7630.1875 22800.79
7631.4375 18552.14
7632.6875 18766.69
7633.9375 21673.85
7635.1875 19512.35
7636.4375 17456.77
7637.6875 21129.06
7638.9375 20568.22
7640.1875 17161.4
7641.4375 18623.94
7642.6875 21010.05
7643.9375 19183.11
7645.1875 17685.05
7646.4375 19491.77
7647.6875 20395.46
7648.9375 19316.64
7650.1875 17144.39
7651.4375 18096.91
7652.6875 19767.09
7653.9375 19492.4
7655.1875 18358.9
7656.4375 19698.54
7657.6875 20683.72
7658.9375 19177.2
7660.1875 17655.25
7661.4375 18526.1
7662.6875 19797.1
7663.9375 19597.37
7665.1875 18413.95
7666.4375 17863.02
7667.6875 19209.23
7668.9375 19186.18
7670.1875 18990.8
7671.4375 18501.53
7672.6875 19082.97
7673.9375 19291.82
7675.1875 18799.32
7676.4375 18549.29
7677.6875 18459.13
7678.9375 18549.41
7680.1875 18403.4
7681.4375 18470.88
7682.6875 18720.39
7683.9375 18139.01
7685.1875 18412.24
7686.4375 18844.86
7687.6875 18814.44
7688.9375 18678.72
7690.1875 18753.74
7691.4375 18356.77
7692.6875 18498.47
7693.9375 18112.44
7695.1875 18068.34
7696.4375 18062.6
7697.6875 17419.16
7698.9375 17110.59
7700.1875 17425.75
7701.4375 17893.98
7702.6875 17962.13
7703.9375 18155.6
7705.1875 18394.99
7706.4375 18317.67
7707.6875 18320.93
7708.9375 17576.6
7710.1875 17309.51
7711.4375 17611.52
7712.6875 18679.62
7713.9375 20100.79
7715.1875 18001.99
7716.4375 18178.65
7717.6875 20009.64
7718.9375 20744.21
7720.1875 18720.75
7721.4375 18043.27
7722.6875 17368.08
7723.9375 17653.08
7725.1875 18406.99
7726.4375 18653.22
7727.6875 19011.79
7728.9375 18051.99
7730.1875 18275.88
7731.4375 17941.74
7732.6875 17320.92
7733.9375 17569.23
7735.1875 17669.91
7736.4375 18273.47
7737.6875 18467.11
7738.9375 18256.36
7740.1875 18511.31
7741.4375 18448.08
7742.6875 18409.9
7743.9375 18241.46
7745.1875 17876.52
7746.4375 17802.65
7747.6875 16423.77
7748.9375 16533.01
7750.1875 18251.46
7751.4375 21536.76
7752.6875 21303.51
7753.9375 18469.05
7755.1875 17573.25
7756.4375 17918.48
7757.6875 17600.1
7758.9375 17755.12
7760.1875 19483.84
7761.4375 20007.43
7762.6875 18773.3
7763.9375 18078.23
7765.1875 18523.8
7766.4375 18371.03
7767.6875 18340.43
7768.9375 18102.24
7770.1875 18257.83
7771.4375 17731.21
7772.6875 18405.22
7773.9375 19229.13
7775.1875 19534.63
7776.4375 18413.77
7777.6875 17286.66
7778.9375 17206.54
7780.1875 17991.69
7781.4375 19035.13
7782.6875 18368.22
7783.9375 17795.1
7785.1875 19091.5
7786.4375 19667.08
7787.6875 19038.42
7788.9375 17953.71
7790.1875 17550.16
7791.4375 17032.68
7792.6875 17529.4
7793.9375 18262.63
7795.1875 20669.45
7796.4375 20267.28
7797.6875 18284.93
7798.9375 17862.85
7800.1875 18120.7
7801.4375 18119.85
7802.6875 18261.85
7803.9375 18060.83
7805.1875 17339.42
7806.4375 16842.03
7807.6875 16848.12
7808.9375 18577.1
7810.1875 19073.17
7811.4375 17878.53
7812.6875 17785.25
7813.9375 17743.0
7815.1875 18016.02
7816.4375 17856.72
7817.6875 17554.8
7818.9375 16578.82
7820.1875 17083.23
7821.4375 18463.17
7822.6875 21251.54
7823.9375 19686.65
7825.1875 17900.88
7826.4375 17908.47
7827.6875 17682.88
7828.9375 18149.03
7830.1875 18036.81
7831.4375 18063.64
7832.6875 17582.79
7833.9375 17674.59
7835.1875 18045.64
7836.4375 17944.95
7837.6875 17743.63
7838.9375 17327.83
7840.1875 17510.43
7841.4375 18602.93
7842.6875 19490.66
7843.9375 18266.57
7845.1875 17957.54
7846.4375 17774.22
7847.6875 17716.89
7848.9375 17491.49
7850.1875 17755.14
7851.4375 17268.57
7852.6875 18804.55
7853.9375 19846.95
7855.1875 21206.33
7856.4375 18451.37
7857.6875 17544.34
7858.9375 17361.48
7860.1875 18817.01
7861.4375 19787.61
7862.6875 19080.27
7863.9375 17972.73
7865.1875 17520.51
7866.4375 17182.77
7867.6875 16884.56
7868.9375 17097.18
7870.1875 17675.1
7871.4375 19346.19
7872.6875 19176.93
7873.9375 17832.21
7875.1875 17546.04
7876.4375 17004.39
7877.6875 17361.46
7878.9375 17851.2
7880.1875 18202.65
7881.4375 18309.52
7882.6875 19222.02
7883.9375 18441.89
7885.1875 17199.41
7886.4375 17263.46
7887.6875 16608.72
7888.9375 17072.3
7890.1875 18290.47
7891.4375 19778.32
7892.6875 18613.96
7893.9375 17605.52
7895.1875 17886.19
7896.4375 17647.27
7897.6875 17822.3
7898.9375 18175.59
7900.1875 17897.54
7901.4375 17362.84
7902.6875 17675.55
7903.9375 18118.88
7905.1875 17871.49
7906.4375 18116.75
7907.6875 17714.31
7908.9375 16877.3
7910.1875 16681.52
7911.4375 16707.45
7912.6875 18217.45
7913.9375 19557.14
7915.1875 22781.11
7916.4375 18419.34
7917.6875 16642.36
7918.9375 16739.41
7920.1875 17165.47
7921.4375 18613.07
7922.6875 20442.41
7923.9375 18038.28
7925.1875 17938.28
7926.4375 17832.61
7927.6875 17090.38
7928.9375 16316.28
7930.1875 16759.59
7931.4375 18017.93
7932.6875 19074.67
7933.9375 17737.95
7935.1875 17313.75
7936.4375 17600.72
7937.6875 17587.31
7938.9375 17348.2
7940.1875 17480.76
7941.4375 17386.36
7942.6875 17317.0
7943.9375 17333.88
7945.1875 17215.04
7946.4375 16903.66
7947.6875 16267.49
7948.9375 17616.08
7950.1875 18830.9
7951.4375 17907.3
7952.6875 17484.29
7953.9375 17138.11
7955.1875 16931.12
7956.4375 17075.95
7957.6875 17279.85
7958.9375 16978.36
7960.1875 16910.51
7961.4375 16349.83
7962.6875 15906.82
7963.9375 17787.78
7965.1875 19317.1
7966.4375 20069.34
7967.6875 16807.67
7968.9375 17217.89
7970.1875 17388.49
7971.4375 16737.67
7972.6875 16515.13
7973.9375 16705.79
7975.1875 16475.68
7976.4375 16415.82
7977.6875 16815.41
7978.9375 17219.56
7980.1875 17787.76
7981.4375 18158.46
7982.6875 17378.74
7983.9375 16794.16
7985.1875 16790.17
7986.4375 17318.57
7987.6875 17069.91
7988.9375 17053.38
7990.1875 16286.15
7991.4375 16266.9
7992.6875 17650.37
7993.9375 20465.49
7995.1875 20747.16
7996.4375 17748.62
7997.6875 16968.81
7998.9375 17127.06
8000.1875 16833.21
8001.4375 17012.32
8002.6875 17284.89
8003.9375 17654.65
8005.1875 17653.26
8006.4375 17030.09
8007.6875 17011.22
8008.9375 17469.28
8010.1875 17306.64
8011.4375 16463.37
8012.6875 16531.06
8013.9375 17263.03
8015.1875 18110.52
8016.4375 17395.7
8017.6875 16972.41
8018.9375 17445.34
8020.1875 17653.92
8021.4375 17246.69
8022.6875 16354.54
8023.9375 15771.6
8025.1875 16999.81
8026.4375 19456.96
8027.6875 19068.89
8028.9375 17307.15
8030.1875 17218.24
8031.4375 16987.89
8032.6875 16997.87
8033.9375 16754.82
8035.1875 17278.27
8036.4375 17487.32
8037.6875 17138.84
8038.9375 17012.2
8040.1875 17186.18
8041.4375 17501.86
8042.6875 17415.36
8043.9375 16935.33
8045.1875 17349.15
8046.4375 17304.2
8047.6875 17347.52
8048.9375 17035.18
8050.1875 16970.32
8051.4375 17510.39
8052.6875 18129.89
8053.9375 18189.98
8055.1875 17363.59
8056.4375 17276.97
8057.6875 17244.92
8058.9375 16577.11
8060.1875 16298.9
8061.4375 16500.31
8062.6875 17368.43
8063.9375 18110.53
8065.1875 17243.84
8066.4375 17373.76
8067.6875 17399.43
8068.9375 17311.7
8070.1875 17564.1
8071.4375 17412.26
8072.6875 17477.8
8073.9375 17046.1
8075.1875 17184.32
8076.4375 17476.19
8077.6875 17381.03
8078.9375 17155.85
8080.1875 16998.79
8081.4375 16678.99
8082.6875 16490.41
8083.9375 16488.98
8085.1875 16439.79
8086.4375 17099.54
8087.6875 17135.26
8088.9375 17282.29
8090.1875 17026.19
8091.4375 16747.39
8092.6875 17137.82
8093.9375 17736.87
8095.1875 17574.41
8096.4375 17149.45
8097.6875 16826.31
8098.9375 16576.23
8100.1875 16721.96
8101.4375 16708.7
8102.6875 17316.27
8103.9375 17531.95
8105.1875 16974.42
8106.4375 16792.77
8107.6875 16620.04
8108.9375 16562.9
8110.1875 16521.4
8111.4375 16702.76
8112.6875 16231.17
8113.9375 16340.41
8115.1875 16784.75
8116.4375 17149.01
8117.6875 16864.15
8118.9375 16696.12
8120.1875 16702.45
8121.4375 16367.34
8122.6875 16329.51
8123.9375 16478.72
8125.1875 16932.56
8126.4375 16322.2
8127.6875 15949.21
8128.9375 16202.41
8130.1875 15797.22
8131.4375 16210.37
8132.6875 17140.59
8133.9375 16365.54
8135.1875 16073.28
8136.4375 16377.81
8137.6875 16712.41
8138.9375 16731.72
8140.1875 16963.59
8141.4375 16925.18
8142.6875 16682.76
8143.9375 17151.12
8145.1875 16549.74
8146.4375 16657.01
8147.6875 16942.81
8148.9375 17087.45
8150.1875 16852.4
8151.4375 16650.71
8152.6875 16789.01
8153.9375 16481.86
8155.1875 16616.19
8156.4375 17033.5
8157.6875 16454.03
8158.9375 16761.58
8160.1875 17084.91
8161.4375 16955.33
8162.6875 17127.24
8163.9375 17115.77
8165.1875 16577.98
8166.4375 17055.75
8167.6875 16983.27
8168.9375 16766.05
8170.1875 16045.59
8171.4375 16803.42
8172.6875 17434.06
8173.9375 16979.19
8175.1875 17317.63
8176.4375 17079.02
8177.6875 16506.05
8178.9375 16196.79
8180.1875 16834.47
8181.4375 16686.24
8182.6875 16556.13
8183.9375 16924.4
8185.1875 16741.51
8186.4375 16728.64
8187.6875 16709.09
8188.9375 17039.99
8190.1875 16591.77
8191.4375 17108.13
8192.6875 16397.98
8193.9375 16485.79
8195.1875 16983.91
8196.4375 17329.95
8197.6875 16623.59
8198.9375 16529.9
8200.1875 16841.78
8201.4375 16516.9
8202.6875 16684.51
8203.9375 16850.3
8205.1875 16632.11
8206.4375 16693.63
8207.6875 16818.92
8208.9375 16953.13
8210.1875 16751.1
8211.4375 16459.03
8212.6875 16571.77
8213.9375 16847.46
8215.1875 16988.9
8216.4375 17035.67
8217.6875 16530.37
8218.9375 15939.54
8220.1875 16432.66
8221.4375 16327.12
8222.6875 16711.63
8223.9375 16808.21
8225.1875 17547.62
8226.4375 17161.86
8227.6875 16316.17
8228.9375 16321.46
8230.1875 16806.81
8231.4375 15763.09
8232.6875 15468.95
8233.9375 16241.1
8235.1875 16645.0
8236.4375 16457.58
8237.6875 16252.55
8238.9375 16208.41
8240.1875 15930.4
8241.4375 16235.95
8242.6875 16214.79
8243.9375 15892.82
8245.1875 15916.67
8246.4375 16334.11
8247.6875 16741.47
8248.9375 16525.58
8250.1875 16307.38
8251.4375 16275.41
8252.6875 17157.03
8253.9375 17394.87
8255.1875 16402.23
8256.4375 15782.52
8257.6875 15767.55
8258.9375 16562.98
8260.1875 16900.09
8261.4375 17080.67
8262.6875 16737.25
8263.9375 16325.52
8265.1875 16142.45
8266.4375 16522.52
8267.6875 16301.15
8268.9375 16200.59
8270.1875 16187.93
8271.4375 16142.26
8272.6875 16129.49
8273.9375 15919.83
8275.1875 15858.22
8276.4375 15356.38
8277.6875 15611.26
8278.9375 16728.35
8280.1875 16690.84
8281.4375 16839.21
8282.6875 17766.57
8283.9375 17191.13
8285.1875 15355.97
8286.4375 15096.17
8287.6875 15934.77
8288.9375 16880.86
8290.1875 17681.02
8291.4375 16496.73
8292.6875 15648.24
8293.9375 14688.05
8295.1875 14444.22
8296.4375 15531.67
8297.6875 16176.39
8298.9375 17954.07
8300.1875 19122.24
8301.4375 17176.68
8302.6875 16306.98
8303.9375 15867.96
8305.1875 15814.9
8306.4375 15215.62
8307.6875 15632.83
8308.9375 15387.07
8310.1875 15794.4
8311.4375 16333.4
8312.6875 16459.2
8313.9375 15563.98
8315.1875 15493.76
8316.4375 15339.76
8317.6875 15543.64
8318.9375 15928.49
8320.1875 16124.92
8321.4375 14802.62
8322.6875 15612.93
8323.9375 16438.65
8325.1875 16457.71
8326.4375 15726.09
8327.6875 15363.44
8328.9375 15789.39
8330.1875 15619.57
8331.4375 15042.32
8332.6875 14921.3
8333.9375 15156.15
8335.1875 14865.49
8336.4375 15608.05
8337.6875 15826.62
8338.9375 15111.49
8340.1875 14414.97
8341.4375 13709.7
8342.6875 14611.67
8343.9375 17693.36
8345.1875 19807.57
8346.4375 20792.74
8347.6875 15536.59
8348.9375 13911.29
8350.1875 14179.84
8351.4375 14519.66
8352.6875 16075.51
8353.9375 17555.29
8355.1875 16520.1
8356.4375 15216.49
8357.6875 14766.45
8358.9375 14833.0
8360.1875 15338.83
8361.4375 15420.76
8362.6875 14136.42
8363.9375 14044.08
8365.1875 15204.79
8366.4375 15778.1
8367.6875 14899.85
8368.9375 14832.7
8370.1875 15179.01
8371.4375 15255.4
8372.6875 15219.75
8373.9375 14485.33
8375.1875 14536.85
8376.4375 14501.6
8377.6875 14321.5
8378.9375 14355.32
8380.1875 14436.51
8381.4375 15224.54
8382.6875 16576.31
8383.9375 17435.45
8385.1875 15208.93
8386.4375 14457.59
8387.6875 14596.13
8388.9375 14731.7
8390.1875 14830.38
8391.4375 14938.81
8392.6875 15206.97
8393.9375 15031.72
8395.1875 14951.92
8396.4375 14885.85
8397.6875 15079.19
8398.9375 16486.65
8400.1875 19482.3
8401.4375 17611.51
8402.6875 14599.53
8403.9375 14443.38
8405.1875 14957.29
8406.4375 14721.49
8407.6875 14632.62
8408.9375 14542.34
8410.1875 14861.33
8411.4375 15415.96
8412.6875 14903.74
8413.9375 14776.11
8415.1875 15244.48
8416.4375 16543.68
8417.6875 15618.96
8418.9375 14664.32
8420.1875 14304.16
8421.4375 14007.12
8422.6875 14423.48
8423.9375 14487.36
8425.1875 13856.82
8426.4375 13321.44
8427.6875 13089.47
8428.9375 14793.73
8430.1875 18027.62
8431.4375 21682.74
8432.6875 17626.13
8433.9375 14572.64
8435.1875 14688.13
8436.4375 14833.64
8437.6875 14742.0
8438.9375 14666.75
8440.1875 14611.95
8441.4375 14784.9
8442.6875 14598.55
8443.9375 14747.03
8445.1875 14845.67
8446.4375 15039.48
8447.6875 14920.49
8448.9375 14177.25
8450.1875 14368.15
8451.4375 15626.68
8452.6875 16267.94
8453.9375 16914.05
8455.1875 15153.59
8456.4375 14616.34
8457.6875 14465.89
8458.9375 14636.89
8460.1875 14530.95
8461.4375 13842.93
8462.6875 13104.97
8463.9375 13433.81
8465.1875 15432.42
8466.4375 18853.7
8467.6875 17363.75
8468.9375 14668.74
8470.1875 14144.17
8471.4375 13853.3
8472.6875 13540.18
8473.9375 13655.2
8475.1875 15232.74
8476.4375 15935.53
8477.6875 14502.2
8478.9375 14064.72
8480.1875 14507.82
8481.4375 14638.67
8482.6875 15114.4
8483.9375 16243.2
8485.1875 16566.89
8486.4375 15030.66
8487.6875 14434.09
8488.9375 14228.06
8490.1875 14017.28
8491.4375 13341.81
8492.6875 14195.0
8493.9375 15128.78
8495.1875 15243.89
8496.4375 14626.99
8497.6875 14677.52
8498.9375 14515.76
8500.1875 14241.46
8501.4375 13735.8
8502.6875 12654.87
8503.9375 14351.42
8505.1875 16733.69
8506.4375 17259.35
8507.6875 14514.84
8508.9375 13808.06
8510.1875 13747.36
8511.4375 14092.84
8512.6875 14180.38
8513.9375 14300.11
8515.1875 14312.82
8516.4375 14295.77
8517.6875 13976.46
8518.9375 14108.74
8520.1875 14075.99
8521.4375 14041.99
8522.6875 14329.8
8523.9375 14521.18
8525.1875 14218.88
8526.4375 14140.76
8527.6875 13898.12
8528.9375 14411.48
8530.1875 14312.87
8531.4375 14215.11
8532.6875 13663.54
8533.9375 13080.78
8535.1875 12362.76
8536.4375 11398.14
8537.6875 12012.5
8538.9375 13633.89
8540.1875 15896.16
8541.4375 15626.27
8542.6875 14331.35
8543.9375 13690.55
8545.1875 13759.09
8546.4375 13620.65
8547.6875 14336.04
8548.9375 14699.22
8550.1875 14779.67
8551.4375 14189.74
8552.6875 13849.73
8553.9375 13515.35
8555.1875 13599.66
8556.4375 13583.79
8557.6875 13906.84
8558.9375 14104.64
8560.1875 13871.21
8561.4375 14155.01
8562.6875 13938.41
8563.9375 13758.68
8565.1875 13669.79
8566.4375 13838.22
8567.6875 13762.83
8568.9375 13883.83
8570.1875 13712.9
8571.4375 13691.15
8572.6875 13574.71
8573.9375 13209.43
8575.1875 13081.78
8576.4375 12491.85
8577.6875 11713.87
8578.9375 11143.25
8580.1875 10444.37
8581.4375 10756.98
8582.6875 12796.37
8583.9375 14841.16
8585.1875 13781.52
8586.4375 12673.14
8587.6875 13441.5
8588.9375 14234.96
8590.1875 14134.02
8591.4375 13882.62
8592.6875 13335.48
8593.9375 13577.83
8595.1875 13300.55
8596.4375 13478.51
8597.6875 14087.78
8598.9375 14367.12
8600.1875 13912.93
8601.4375 14165.65
8602.6875 13864.49
8603.9375 13604.0
8605.1875 13652.22
8606.4375 13664.15
8607.6875 13465.97
8608.9375 13451.39
8610.1875 13478.56
8611.4375 13404.95
8612.6875 13665.49
8613.9375 12839.75
8615.1875 13578.68
8616.4375 15053.65
8617.6875 16142.29
8618.9375 14086.53
8620.1875 13408.48
8621.4375 13431.74
8622.6875 13067.43
8623.9375 12688.06
8625.1875 13121.79
8626.4375 13256.06
8627.6875 12276.74
8628.9375 12754.32
8630.1875 12732.16
8631.4375 13190.26
8632.6875 13150.71
8633.9375 13847.02
8635.1875 13908.6
8636.4375 15845.71
8637.6875 16401.39
8638.9375 14309.57
8640.1875 13126.31
8641.4375 13759.81
8642.6875 13870.59
8643.9375 13583.75
8645.1875 13037.79
8646.4375 13189.9
8647.6875 13260.16
8648.9375 13261.22
8650.1875 12700.32
8651.4375 12828.38
8652.6875 13693.26
8653.9375 13579.58
8655.1875 13561.36
8656.4375 14148.89
8657.6875 14204.26
8658.9375 13602.35
8660.1875 12781.39
8661.4375 13358.24
8662.6875 13933.97
8663.9375 12798.21
8665.1875 13187.4
8666.4375 13959.16
8667.6875 13545.25
8668.9375 12848.98
8670.1875 12472.93
8671.4375 13706.96
8672.6875 13567.02
8673.9375 12976.62
8675.1875 13220.65
8676.4375 13850.43
8677.6875 14215.32
8678.9375 13263.28
8680.1875 12543.66
8681.4375 13777.1
8682.6875 14489.07
8683.9375 13771.45
8685.1875 13303.55
8686.4375 13326.3
8687.6875 13980.48
8688.9375 14023.7
8690.1875 13106.3
8691.4375 12928.43
8692.6875 13846.21
8693.9375 13611.95
8695.1875 13547.91
8696.4375 12557.7
8697.6875 12382.05
8698.9375 11895.85
8700.1875 11130.2
8701.4375 10955.27
8702.6875 12687.24
8703.9375 15752.14
8705.1875 14803.48
8706.4375 13135.97
8707.6875 12982.83
8708.9375 13366.65
8710.1875 13279.84
8711.4375 13410.96
8712.6875 13194.44
8713.9375 13340.58
8715.1875 13248.75
8716.4375 13479.83
8717.6875 13967.99
8718.9375 14089.3
8720.1875 13899.29
8721.4375 14336.67
8722.6875 14527.55
8723.9375 14286.72
8725.1875 14208.52
8726.4375 13607.51
8727.6875 12947.67
8728.9375 12874.1
8730.1875 13622.94
8731.4375 13854.57
8732.6875 13724.74
8733.9375 13695.37
8735.1875 14080.88
8736.4375 14101.73
8737.6875 13826.97
8738.9375 13751.95
8740.1875 13971.8
8741.4375 14134.11
8742.6875 14288.0
8743.9375 14083.96
8745.1875 14269.66
8746.4375 13959.57
8747.6875 14128.76
8748.9375 13913.32
8750.1875 13927.92
8751.4375 14212.97
8752.6875 13839.87
8753.9375 13870.7
8755.1875 13900.51
8756.4375 13432.37
8757.6875 13121.71
8758.9375 13584.08
8760.1875 14677.3
8761.4375 15248.18
8762.6875 16590.86
8763.9375 14620.71
8765.1875 13562.98
8766.4375 14659.24
8767.6875 16642.57
8768.9375 17104.16
8770.1875 15760.47
8771.4375 14217.67
8772.6875 13508.35
8773.9375 12462.28
8775.1875 12788.91
8776.4375 13867.38
8777.6875 15938.96
8778.9375 16249.98
8780.1875 16314.2
8781.4375 13800.51
8782.6875 12781.88
8783.9375 13350.39
8785.1875 13627.36
8786.4375 13469.86
8787.6875 13800.98
8788.9375 16613.03
8790.1875 19018.17
8791.4375 16587.69
8792.6875 14968.0
8793.9375 13802.1
8795.1875 13269.32
8796.4375 13317.46
8797.6875 13258.07
8798.9375 13780.97
8800.1875 13846.67
8801.4375 13835.76
8802.6875 13716.59
8803.9375 13539.55
8805.1875 13488.58
8806.4375 13495.76
8807.6875 13584.34
8808.9375 13720.44
8810.1875 13743.83
8811.4375 13846.63
8812.6875 13702.02
8813.9375 13578.03
8815.1875 13724.38
8816.4375 13695.52
8817.6875 13877.15
8818.9375 13813.3
8820.1875 14060.61
8821.4375 13760.8
8822.6875 13293.89
8823.9375 12564.44
8825.1875 13308.24
8826.4375 18019.78
8827.6875 21088.32
8828.9375 20471.09
8830.1875 15062.13
8831.4375 12709.97
8832.6875 12793.22
8833.9375 13213.79
8835.1875 13918.97
8836.4375 15262.62
8837.6875 16970.23
8838.9375 15413.01
8840.1875 13965.84
8841.4375 13570.94
8842.6875 13534.29
8843.9375 13615.99
8845.1875 12922.31
8846.4375 12552.43
8847.6875 12526.33
8848.9375 13437.62
8850.1875 15021.93
8851.4375 15155.03
8852.6875 14135.66
8853.9375 13982.36
8855.1875 13832.25
8856.4375 14314.94
8857.6875 14207.58
8858.9375 14145.21
8860.1875 13820.46
8861.4375 13896.62
8862.6875 13873.46
8863.9375 12905.84
8865.1875 12452.73
8866.4375 13590.69
8867.6875 15301.31
8868.9375 16059.09
8870.1875 15096.97
8871.4375 14013.57
8872.6875 13725.27
8873.9375 13672.07
8875.1875 13924.05
8876.4375 13854.02
8877.6875 13496.21
8878.9375 13482.61
8880.1875 13278.74
8881.4375 13567.09
8882.6875 12391.48
8883.9375 12435.72
8885.1875 16575.05
8886.4375 19742.02
8887.6875 18829.18
8888.9375 14964.8
8890.1875 13508.94
8891.4375 13391.17
8892.6875 14051.46
8893.9375 13743.97
8895.1875 13895.87
8896.4375 13981.97
8897.6875 13852.08
8898.9375 12900.25
8900.1875 12680.97
8901.4375 15478.01
8902.6875 21257.02
8903.9375 20086.37
8905.1875 15711.67
8906.4375 12700.49
8907.6875 12272.08
8908.9375 12888.14
8910.1875 12863.27
8911.4375 13081.94
8912.6875 13564.0
8913.9375 13371.63
8915.1875 12495.85
8916.4375 11316.82
8917.6875 11060.91
8918.9375 15196.98
8920.1875 19268.01
8921.4375 18774.22
8922.6875 14221.6
8923.9375 12378.65
8925.1875 12470.36
8926.4375 13349.16
8927.6875 13587.29
8928.9375 13698.32
8930.1875 13371.82
8931.4375 13540.98
8932.6875 13406.4
8933.9375 13378.6
8935.1875 13336.29
8936.4375 13638.46
8937.6875 13583.71
8938.9375 13526.31
8940.1875 12760.91
8941.4375 12427.18
8942.6875 14001.91
8943.9375 14959.67
8945.1875 14974.6
8946.4375 13845.77
8947.6875 12923.26
8948.9375 13177.46
8950.1875 13475.36
8951.4375 13392.81
8952.6875 13180.26
8953.9375 12359.9
8955.1875 11953.65
8956.4375 12444.36
8957.6875 16700.19
8958.9375 19583.62
8960.1875 17004.02
8961.4375 13990.1
8962.6875 12460.02
8963.9375 12659.08
8965.1875 13254.71
8966.4375 12833.3
8967.6875 13268.65
8968.9375 13645.31
8970.1875 13630.25
8971.4375 13406.38
8972.6875 13089.95
8973.9375 13307.1
8975.1875 13411.96
8976.4375 13527.16
8977.6875 13361.82
8978.9375 13292.68
8980.1875 13305.76
8981.4375 12995.02
8982.6875 13548.83
8983.9375 13019.44
8985.1875 13063.07
8986.4375 12387.78
8987.6875 12811.74
8988.9375 14590.31
8990.1875 14521.34
8991.4375 12743.93
8992.6875 13075.96
8993.9375 13973.21
8995.1875 13516.4
8996.4375 13578.84
8997.6875 12805.34
8998.9375 12267.63
9000.1875 12964.12
9001.4375 15733.72
9002.6875 16746.4
9003.9375 13852.25
9005.1875 12784.35
9006.4375 13249.95
9007.6875 12728.9
9008.9375 13136.34
9010.1875 13344.4
9011.4375 13033.34
9012.6875 12735.7
9013.9375 13631.22
9015.1875 13581.68
9016.4375 12596.26
9017.6875 12449.94
9018.9375 13254.28
9020.1875 13419.26
9021.4375 13796.85
9022.6875 13166.97
9023.9375 13729.45
9025.1875 13625.3
9026.4375 12671.68
9027.6875 13718.52
9028.9375 13834.47
9030.1875 13060.91
9031.4375 12695.28
9032.6875 13309.45
9033.9375 13449.61
9035.1875 13189.99
9036.4375 12942.98
9037.6875 14315.99
9038.9375 14050.02
9040.1875 13428.02
9041.4375 12752.65
9042.6875 12678.53
9043.9375 12911.62
9045.1875 13410.8
9046.4375 13200.03
9047.6875 12230.87
9048.9375 13332.15
9050.1875 14418.35
9051.4375 13175.51
9052.6875 12589.76
9053.9375 15370.65
9055.1875 21691.12
9056.4375 20830.08
9057.6875 15253.15
9058.9375 13205.59
9060.1875 13050.08
9061.4375 12076.79
9062.6875 11871.09
9063.9375 11834.78
9065.1875 12446.58
9066.4375 12852.6
9067.6875 12848.95
9068.9375 11896.37
9070.1875 11966.18
9071.4375 11971.23
9072.6875 11623.3
9073.9375 12259.42
9075.1875 12877.15
9076.4375 13572.83
9077.6875 13452.06
9078.9375 12227.86
9080.1875 11244.01
9081.4375 11690.32
9082.6875 12874.68
9083.9375 13784.33
9085.1875 13238.44
9086.4375 11622.82
9087.6875 11495.14
9088.9375 12510.54
9090.1875 12729.0
9091.4375 12972.62
9092.6875 13135.76
9093.9375 13195.99
9095.1875 13061.03
9096.4375 13274.15
9097.6875 13597.68
9098.9375 12507.49
9100.1875 10786.96
9101.4375 12018.44
9102.6875 13820.31
9103.9375 13927.14
9105.1875 13570.61
9106.4375 14089.86
9107.6875 23852.77
9108.9375 61067.11
9110.1875 80317.48
9111.4375 45486.62
9112.6875 18893.31
9113.9375 14889.83
9115.1875 14326.12
9116.4375 13745.83
9117.6875 12355.91
9118.9375 11571.59
9120.1875 11971.12
9121.4375 13542.42
9122.6875 13904.66
9123.9375 14012.61
9125.1875 13593.73
9126.4375 13195.07
9127.6875 12354.37
9128.9375 11486.56
9130.1875 10586.79
9131.4375 10774.83
9132.6875 12430.12
9133.9375 12994.66
9135.1875 11926.42
9136.4375 10659.41
9137.6875 11523.37
9138.9375 13368.2
9140.1875 13457.42
9141.4375 13325.66
9142.6875 13685.15
9143.9375 13485.81
9145.1875 13637.1
9146.4375 13658.91
9147.6875 13431.15
9148.9375 12914.0
9150.1875 12494.97
9151.4375 12069.14
9152.6875 11396.9
9153.9375 11426.49
9155.1875 11033.97
9156.4375 10516.5
9157.6875 11855.61
9158.9375 12599.84
9160.1875 12187.32
9161.4375 12830.03
9162.6875 13366.41
9163.9375 14085.94
9165.1875 14255.66
9166.4375 14022.12
9167.6875 13709.23
9168.9375 13356.98
9170.1875 13710.43
9171.4375 13152.98
9172.6875 13027.0
9173.9375 11515.1
9175.1875 11170.29
9176.4375 12039.78
9177.6875 12397.87
9178.9375 13031.94
9180.1875 13488.52
9181.4375 13002.74
9182.6875 12742.04
9183.9375 12192.39
9185.1875 11838.83
9186.4375 12761.1
9187.6875 13396.05
9188.9375 13285.93
9190.1875 13360.77
9191.4375 13211.42
9192.6875 12944.46
9193.9375 12802.49
9195.1875 12205.32
9196.4375 12096.91
9197.6875 13501.62
9198.9375 13775.94
9200.1875 13478.31
9201.4375 13764.57
9202.6875 13389.1
9203.9375 13578.91
9205.1875 13145.87
9206.4375 12828.78
9207.6875 12812.36
9208.9375 12780.41
9210.1875 12801.63
9211.4375 12468.92
9212.6875 12387.94
9213.9375 11963.59
9215.1875 11833.75
9216.4375 12037.7
9217.6875 12512.19
9218.9375 12483.82
9220.1875 13281.39
9221.4375 13301.2
9222.6875 12907.32
9223.9375 13019.51
9225.1875 13042.61
9226.4375 13234.89
9227.6875 13318.98
9228.9375 13138.38
9230.1875 12605.21
9231.4375 12608.26
9232.6875 13017.78
9233.9375 12332.94
9235.1875 12798.17
9236.4375 12555.49
9237.6875 12632.65
9238.9375 12435.24
9240.1875 12664.61
9241.4375 12801.64
9242.6875 13038.52
9243.9375 12820.4
9245.1875 12005.86
9246.4375 12093.7
9247.6875 12323.66
9248.9375 12633.61
9250.1875 12491.15
9251.4375 11815.14
9252.6875 12249.55
9253.9375 12030.24
9255.1875 12132.03
9256.4375 12207.31
9257.6875 12354.86
9258.9375 12724.86
9260.1875 12040.83
9261.4375 12043.91
9262.6875 12310.04
9263.9375 12475.45
9265.1875 12697.85
9266.4375 12327.38
9267.6875 13387.52
9268.9375 17626.03
9270.1875 25507.91
9271.4375 23256.16
9272.6875 15207.16
9273.9375 11905.57
9275.1875 12134.09
9276.4375 12806.2
9277.6875 12432.66
9278.9375 12312.64
9280.1875 12285.09
9281.4375 12149.53
9282.6875 12218.23
9283.9375 12204.24
9285.1875 12130.16
9286.4375 12408.1
9287.6875 12493.22
9288.9375 11766.72
9290.1875 12141.69
9291.4375 12100.75
9292.6875 12248.58
9293.9375 12510.0
9295.1875 12506.55
9296.4375 12392.35
9297.6875 12188.07
9298.9375 12112.25
9300.1875 12105.8
9301.4375 11774.22
9302.6875 11732.78
9303.9375 10174.62
9305.1875 11184.34
9306.4375 13536.83
9307.6875 14811.37
9308.9375 14214.11
9310.1875 11363.92
9311.4375 9469.51
9312.6875 15850.4
9313.9375 19349.21
9315.1875 15802.02
9316.4375 11434.18
9317.6875 11986.76
9318.9375 11790.71
9320.1875 10923.16
9321.4375 10381.47
9322.6875 12425.79
9323.9375 19953.99
9325.1875 18127.11
9326.4375 12540.46
9327.6875 11935.79
9328.9375 11078.43
9330.1875 12212.37
9331.4375 13438.7
9332.6875 12558.66
9333.9375 11644.61
9335.1875 11559.65
9336.4375 11841.95
9337.6875 12756.27
9338.9375 13551.59
9340.1875 13353.24
9341.4375 13767.56
9342.6875 12890.78
9343.9375 11854.26
9345.1875 12181.24
9346.4375 12159.64
9347.6875 12567.06
9348.9375 12140.85
9350.1875 12050.21
